# Lambda	Flux
0.934	2632523.5170105025
0.9340983634797588	2680913.999899694
0.9341967269595176	2724612.247975181
0.9342950904392765	2774354.5088438527
0.9343934539190354	2821793.255475824
0.9344918173987943	2899782.445734629
0.934590180878553	2936926.5851726937
0.9346885443583118	2950332.145471898
0.9347869078380707	3032188.6942841522
0.9348852713178294	3059229.8109362493
0.9349836347975883	3129678.473743578
0.9350819982773472	3186152.9973252155
0.9351803617571058	3237322.2071969924
0.9352787252368647	3285885.3365748003
0.9353770887166236	3328699.271015558
0.9354754521963825	3388169.7384031145
0.9355738156761412	3411729.9496715856
0.9356721791559001	3458665.1985336524
0.935770542635659	3535621.9199783397
0.9358689061154176	3580892.2657756964
0.9359672695951765	3638881.2914397507
0.9360656330749354	3712346.620126033
0.9361639965546943	3740885.162727648
0.9362623600344531	3788466.8552946076
0.9363607235142118	3830412.4870681316
0.9364590869939707	3899700.337126222
0.9365574504737295	3949522.6398441507
0.9366558139534884	3986643.543507857
0.9367541774332473	4063101.6854069387
0.936852540913006	4087654.1262986464
0.9369509043927648	4154442.26954803
0.9370492678725237	4200940.235861372
0.9371476313522826	4237363.545738816
0.9372459948320413	4294007.201941685
0.9373443583118002	4313377.957031551
0.9374427217915591	4403001.953411507
0.9375410852713177	4431143.081032129
0.9376394487510766	4497582.248858246
0.9377378122308355	4543977.530936612
0.9378361757105944	4592640.136205798
0.9379345391903531	4645685.870642391
0.938032902670112	4724806.62209212
0.9381312661498709	4733074.95862719
0.9382296296296295	4760144.867925776
0.9383279931093884	4812903.446571198
0.9384263565891473	4924921.979390377
0.938524720068906	4937166.197938555
0.9386230835486649	5005826.287578675
0.9387214470284237	5045067.190673901
0.9388198105081826	5100592.644421918
0.9389181739879414	5094925.30588449
0.9390165374677003	5206272.516834067
0.9391149009474591	5258363.098778852
0.9392132644272179	5298058.113187608
0.9393116279069768	5351069.033122527
0.9394099913867356	5410325.018588612
0.9395083548664945	5457928.969508155
0.9396067183462532	5492616.805526824
0.9397050818260121	5560081.417864393
0.939803445305771	5611625.4769297885
0.9399018087855296	5665701.877840445
0.9400001722652885	5724552.093298337
0.9400985357450474	5722222.1869851975
0.9401968992248061	5741601.59403979
0.940295262704565	5744691.211827222
0.9403936261843239	5783485.808570582
0.9404919896640828	5801012.757443713
0.9405903531438414	5829273.52178558
0.9406887166236003	5838282.008964585
0.9407870801033592	5852700.22819668
0.9408854435831179	5883314.000451433
0.9409838070628768	5904152.469463414
0.9410821705426357	5897396.396472215
0.9411805340223945	5959141.287214528
0.9412788975021533	5933900.221072145
0.9413772609819121	5948139.582283824
0.941475624461671	5971609.362084828
0.9415739879414298	5993781.460701792
0.9416723514211887	6017649.722112605
0.9417707149009475	6029838.237714434
0.9418690783807062	6042886.0737764565
0.9419674418604651	6070506.721264171
0.942065805340224	6090944.2469690405
0.9421641688199829	6105272.080368095
0.9422625322997416	6129537.7387548685
0.9423608957795004	6115212.593668597
0.9424592592592593	6167830.757411163
0.942557622739018	6159357.635955479
0.9426559862187769	6189684.326861054
0.9427543496985358	6236840.943806987
0.9428527131782947	6219408.203232577
0.9429510766580533	6255600.520385747
0.9430494401378122	6114438.907213149
0.9431478036175711	6284185.578832188
0.9432461670973298	6303371.491042753
0.9433445305770887	6294791.969548336
0.9434428940568476	6346198.650669145
0.9435412575366064	6333596.81270729
0.9436396210163651	6362956.533537836
0.943737984496124	6387253.630391023
0.9438363479758829	6397377.587938132
0.9439347114556417	6408113.868061138
0.9440330749354006	6461743.424581396
0.9441314384151593	6456648.143724519
0.9442298018949181	6461500.21766953
0.944328165374677	6498281.386526001
0.9444265288544359	6619574.688756888
0.9445248923341948	6491123.284512105
0.9446232558139535	6515976.65916687
0.9447216192937123	6526852.06950477
0.9448199827734712	6550849.6216716
0.9449183462532299	6587502.324883206
0.9450167097329888	6601602.663932862
0.9451150732127477	6637342.96576791
0.9452134366925066	6656570.986087727
0.9453118001722652	6674344.066647321
0.9454101636520241	6675272.149742785
0.945508527131783	6695880.798187644
0.9456068906115417	6755396.50691212
0.9457052540913006	6748236.033444402
0.9458036175710595	6702195.548012499
0.9459019810508181	6795332.941339048
0.946000344530577	6799232.2936029
0.9460987080103359	6799319.373251543
0.9461970714900948	6808175.861077717
0.9462954349698536	6861659.46036144
0.9463937984496124	6843793.431905244
0.9464921619293712	6854894.787558973
0.94659052540913	6890774.058631698
0.9466888888888889	6921198.939551668
0.9467872523686478	6928758.173294951
0.9468856158484066	6954760.350385905
0.9469839793281654	6964689.677130495
0.9470823428079242	6967436.007499757
0.9471807062876831	7023104.764631533
0.9472790697674418	7064213.445537937
0.9473774332472007	7024367.155364705
0.9474757967269596	7055530.139595228
0.9475741602067183	7072553.63618931
0.9476725236864771	7063512.198293207
0.947770887166236	7118557.53989192
0.9478692506459949	7104703.08272352
0.9479676141257536	7164152.079021174
0.9480659776055125	7162758.486833332
0.9481643410852714	7176852.281473328
0.94826270456503	7185701.8354420215
0.9483610680447889	7281303.855677468
0.9484594315245478	7177421.433532489
0.9485577950043067	7213347.155511709
0.9486561584840654	7282216.533772136
0.9487545219638243	7273706.747828068
0.9488528854435831	7319420.928193062
0.9489512489233419	7347068.369974714
0.9490496124031008	7347197.380308185
0.9491479758828596	7352301.884956861
0.9492463393626184	7386701.485033424
0.9493447028423773	7398802.9208195545
0.9494430663221362	7409597.636275944
0.949541429801895	7420961.156171928
0.9496397932816537	7456335.1100544995
0.9497381567614126	7478971.512209426
0.9498365202411715	7504454.763713836
0.9499348837209302	7460638.020095211
0.950033247200689	7539693.778782496
0.9501316106804479	7609272.587107644
0.9502299741602068	7574689.124908522
0.9503283376399655	7661422.918572299
0.9504267011197244	7825871.16237591
0.9505250645994833	7786945.69442186
0.9506234280792419	7844835.580015757
0.9507217915590008	7891872.406306072
0.9508201550387597	7939805.365771738
0.9509185185185184	7987830.936155006
0.9510168819982773	8038322.899114068
0.9511152454780362	8087689.874124101
0.951213608957795	8132023.606801379
0.9513119724375538	8187622.418558129
0.9514103359173126	8238054.947061894
0.9515086993970715	8285541.373299115
0.9516070628768303	8338822.835755837
0.9517054263565892	8411202.104437266
0.9518037898363481	8455147.252419837
0.9519021533161068	8527452.788079157
0.9520005167958656	8503390.262653546
0.9520988802756245	8546291.862985866
0.9521972437553834	8650898.340764169
0.9522956072351421	8722687.952291237
0.952393970714901	8714625.577646803
0.9524923341946598	8845214.472426295
0.9525906976744185	8877884.64257701
0.9526890611541774	8905571.664010104
0.9527874246339363	8947488.432580832
0.9528857881136952	9007844.813090896
0.9529841515934538	9067016.974533468
0.9530825150732127	9144920.850319274
0.9531808785529716	9182302.084253814
0.9532792420327303	9231558.719809338
0.9533776055124892	9254103.05969629
0.9534759689922481	9324189.472200198
0.953574332472007	9353137.266583623
0.9536726959517656	9412914.052609023
0.9537710594315245	9433188.20640277
0.9538694229112834	9507923.044985222
0.9539677863910422	9553217.002204122
0.9540661498708011	9626376.1717691
0.9541645133505599	9665318.411990086
0.9542628768303187	9719168.592736043
0.9543612403100775	9759703.981714735
0.9544596037898364	9813724.227035386
0.9545579672695953	9823534.503207335
0.954656330749354	9791681.733243916
0.9547546942291129	9988408.310180174
0.9548530577088717	10020785.896313468
0.9549514211886304	10063603.264669413
0.9550497846683893	10108956.433694547
0.9551481481481482	10164968.767528716
0.9552465116279071	10238614.771432431
0.9553448751076657	10288411.998077143
0.9554432385874246	10305435.846974488
0.9555416020671835	10301046.327073026
0.9556399655469422	10501315.109617189
0.9557383290267011	10446478.452662213
0.95583669250646	10541174.05041108
0.9559350559862189	10612967.809539247
0.9560334194659775	10653932.40739006
0.9561317829457364	10687551.269145245
0.9562301464254953	10725533.808778727
0.9563285099052541	10802146.893458582
0.9564268733850129	10854696.195140036
0.9565252368647718	10895372.603797771
0.9566236003445305	10970297.987256402
0.9567219638242894	11013652.012298467
0.9568203273040483	10995426.449543882
0.9569186907838071	11062810.398387033
0.9570170542635659	11200628.131386334
0.9571154177433248	11199575.337218288
0.9572137812230836	11262985.168162981
0.9573121447028423	11311255.064968547
0.9574105081826012	11339576.314006092
0.9575088716623601	11402981.185586818
0.957607235142119	11457063.526450569
0.9577055986218777	11505340.973054554
0.9578039621016365	11555608.221705304
0.9579023255813954	11595797.208190218
0.9580006890611541	11664362.057414498
0.958099052540913	11727388.958553474
0.9581974160206719	11754994.010570275
0.9582957795004305	11757765.571684461
0.9583941429801894	11993281.137737004
0.9584925064599483	11888364.03011802
0.9585908699397072	11960965.736856483
0.9586892334194659	12005727.437742082
0.9587875968992248	12061498.872947035
0.9588859603789837	12118450.282041468
0.9589843238587424	12191180.806643771
0.9590826873385013	12237057.633488888
0.9591810508182601	12297168.872408245
0.959279414298019	12256026.487751456
0.9593777777777778	12370940.95826239
0.9594761412575367	12413719.243751347
0.9595745047372956	12470450.135451354
0.9596728682170542	12556023.17972737
0.9597712316968131	12582383.977775574
0.959869595176572	12642363.292154599
0.9599679586563307	12685410.397095915
0.9600663221360896	12741882.619963372
0.9601646856158484	12706883.796985237
0.9602630490956073	12685707.009400988
0.960361412575366	12697005.956979483
0.9604597760551249	12709016.680561038
0.9605581395348838	12713620.741982736
0.9606565030146424	12704963.127040006
0.9607548664944013	12661046.118223745
0.9608532299741602	12703036.178171912
0.9609515934539191	12734204.261299273
0.9610499569336778	12727112.33642332
0.9611483204134367	12729417.101135168
0.9612466838931956	12729974.070537876
0.9613450473729542	12741830.850838525
0.9614434108527131	12719955.215353733
0.961541774332472	12724535.853049494
0.9616401378122308	12708345.552614858
0.9617385012919897	12719012.30462275
0.9618368647717486	12710166.58482599
0.9619352282515073	12742879.364033822
0.9620335917312661	12723842.587257478
0.962131955211025	12740149.413271122
0.9622303186907839	12702946.150289623
0.9623286821705426	12712529.775099022
0.9624270456503015	12755202.23519455
0.9625254091300603	12751465.25041931
0.9626237726098192	12760232.25714552
0.9627221360895779	12725502.156893024
0.9628204995693368	12738027.408096826
0.9629188630490957	12711797.153891945
0.9630172265288544	12730913.20039376
0.9631155900086132	12741341.419218019
0.9632139534883721	12749632.22456904
0.9633123169681308	12760539.42162847
0.9634106804478897	12751142.160219729
0.9635090439276486	12758339.851969028
0.9636074074074075	12757007.381857995
0.9637057708871661	12742065.357579848
0.963804134366925	12770418.077331143
0.9639024978466839	12722028.399409838
0.9640008613264427	12728952.40102195
0.9640992248062016	12760936.933801629
0.9641975882859604	12750471.709279094
0.9642959517657193	12753666.27430936
0.964394315245478	12756428.78858719
0.9644926787252369	12774546.694891095
0.9645910422049958	12776745.214905178
0.9646894056847545	12745319.615021689
0.9647877691645134	12778942.526302647
0.9648861326442723	12733367.94859272
0.9649844961240309	12805137.777048087
0.9650828596037898	12765870.906545147
0.9651812230835487	12777505.614139218
0.9652795865633076	12776512.480551552
0.9653779500430663	12775661.077631272
0.9654763135228251	12797650.596282406
0.965574677002584	12754307.373141889
0.9656730404823427	12774037.0880361
0.9657714039621016	12779133.838768674
0.9658697674418605	12800269.193978436
0.9659681309216194	12780425.7728024
0.966066494401378	12776423.680179352
0.9661648578811369	12791547.253364734
0.9662632213608958	12777747.146884786
0.9663615848406545	12781349.821451718
0.9664599483204134	12756006.827069541
0.9665583118001723	12799254.288687712
0.966656675279931	12781582.179939909
0.9667550387596899	12790448.553737164
0.9668534022394488	12801362.779121483
0.9669517657192076	12784453.824314829
0.9670501291989664	12822184.485340323
0.9671484926787253	12797440.862357894
0.9672468561584842	12802219.69714004
0.9673452196382428	12798895.985619446
0.9674435831180017	12797844.973919518
0.9675419465977606	12814563.568138532
0.9676403100775195	12801911.715378154
0.9677386735572782	12813826.670647247
0.967837037037037	12808781.868994005
0.9679354005167959	12814940.64274483
0.9680337639965546	12819994.357260177
0.9681321274763135	12809374.822774034
0.9682304909560724	12798404.190998686
0.968328854435831	12858279.921207279
0.9684272179155899	12791750.447202506
0.9685255813953488	12836109.8240582
0.9686239448751077	12829731.248877054
0.9687223083548664	12825659.113732796
0.9688206718346253	12822141.525898477
0.9689190353143842	12834909.419049906
0.969017398794143	12825850.892549274
0.9691157622739018	12824167.70605381
0.9692141257536606	12836448.978366962
0.9693124892334195	12831927.249940867
0.9694108527131783	12835044.392646654
0.9695092161929372	12831889.394460876
0.9696075796726961	12823944.190471292
0.9697059431524547	12842881.684921628
0.9698043066322136	12830754.585779449
0.9699026701119725	12847735.564241927
0.9700010335917312	12842612.370782949
0.9700993970714901	12842973.66070681
0.970197760551249	12853247.445001697
0.9702961240310078	12870424.464155896
0.9703944875107665	12888211.35688433
0.9704928509905254	12889654.867132884
0.9705912144702843	12880811.386494799
0.970689577950043	12882174.768556044
0.9707879414298018	12900135.237213263
0.9708863049095607	12892618.450706292
0.9709846683893196	12913433.186972652
0.9710830318690783	12908982.97578559
0.9711813953488372	12910152.763192235
0.9712797588285961	12919386.243365942
0.9713781223083547	12939459.450217616
0.9714764857881136	12942996.68534024
0.9715748492678725	12965427.714912003
0.9716732127476313	12942545.894298615
0.9717715762273902	12970359.853160419
0.9718699397071491	12963697.537054222
0.9719683031869079	12979131.921853425
0.9720666666666666	12983285.58875951
0.9721650301464255	12995062.751832133
0.9722633936261844	12987225.821107596
0.9723617571059431	13008828.726447413
0.972460120585702	13000570.561749468
0.9725584840654609	13015149.02571175
0.9726568475452197	13009573.665103313
0.9727552110249784	13035318.31821469
0.9728535745047373	13030689.90058048
0.9729519379844962	13036791.5697323
0.9730503014642549	13048269.376033636
0.9731486649440138	13050725.278924847
0.9732470284237726	13070275.415229294
0.9733453919035315	13061761.894017596
0.9734437553832902	13075761.008331949
0.9735421188630491	13076557.341916533
0.973640482342808	13095787.63938806
0.9737388458225666	13093757.545378134
0.9738372093023255	13097643.46079748
0.9739355727820844	13131346.2341707
0.9740339362618432	13110461.76476167
0.9741322997416021	13118570.342189206
0.9742306632213609	13127011.684268078
0.9743290267011198	13135383.337956628
0.9744273901808785	13139007.150272688
0.9745257536606374	13175417.816032799
0.9746241171403963	13139802.55752085
0.974722480620155	13158232.764752058
0.9748208440999139	13180330.592306472
0.9749192075796728	13179742.697364088
0.9750175710594317	13169914.097222373
0.9751159345391903	13191218.529599002
0.9752142980189492	13202421.337071273
0.9753126614987081	13191609.364258558
0.9754110249784668	13210321.63246722
0.9755093884582257	13216659.532965874
0.9756077519379845	13219022.603478523
0.9757061154177432	13227148.38007529
0.9758044788975021	13224939.218843149
0.975902842377261	13235416.639957407
0.9760012058570199	13254322.054240763
0.9760995693367785	13260009.371192573
0.9761979328165374	13262535.327753283
0.9762962962962963	13270927.33017724
0.976394659776055	13280648.199065587
0.9764930232558139	13282837.090398697
0.9765913867355728	13288933.498909744
0.9766897502153317	13289786.59250575
0.9767881136950904	13317024.701136207
0.9768864771748493	13319398.68490109
0.9769848406546081	13320046.153464416
0.9770832041343669	13329243.424514633
0.9771815676141258	13313810.781462453
0.9772799310938847	13329663.66604309
0.9773782945736433	13342027.931001054
0.9774766580534022	13353447.48723972
0.9775750215331611	13355461.548926076
0.97767338501292	13374959.412856348
0.9777717484926787	13373313.430894671
0.9778701119724376	13381833.322169911
0.9779684754521965	13391150.421467459
0.9780668389319551	13385759.079286955
0.978165202411714	13395677.725947114
0.9782635658914729	13402983.087551717
0.9783619293712318	13406772.281793721
0.9784602928509905	13431921.56323747
0.9785586563307493	13451719.788616756
0.9786570198105082	13446861.847038634
0.9787553832902669	13435972.731044231
0.9788537467700258	13442850.632035159
0.9789521102497847	13448644.72839302
0.9790504737295436	13448321.376426943
0.9791488372093022	13447295.53320267
0.9792472006890611	13470921.234844504
0.97934556416882	13483096.38024785
0.9794439276485788	13492109.785526263
0.9795422911283377	13514538.242956264
0.9796406546080966	13522260.772459107
0.9797390180878552	13505025.772346381
0.9798373815676141	13518446.91120534
0.979935745047373	13504413.568237212
0.9800341085271319	13524783.997500911
0.9801324720068906	13517864.884778574
0.9802308354866495	13523908.640392438
0.9803291989664084	13537074.887330549
0.980427562446167	13522989.68562913
0.9805259259259259	13536189.282993825
0.9806242894056848	13538733.32465443
0.9807226528854437	13536349.926830493
0.9808210163652024	13549088.775907615
0.9809193798449612	13549760.718380027
0.9810177433247201	13567573.698549218
0.9811161068044788	13568443.659117412
0.9812144702842377	13553219.658534965
0.9813128337639966	13566800.49846231
0.9814111972437553	13570214.81558477
0.9815095607235141	13577736.204152491
0.981607924203273	13590283.385587152
0.9817062876830319	13580767.130018456
0.9818046511627907	13589134.23219179
0.9819030146425496	13580785.17163096
0.9820013781223084	13602260.79469007
0.9820997416020671	13605831.897486322
0.982198105081826	13615494.847948464
0.9822964685615849	13604060.025761003
0.9823948320413438	13616565.582293274
0.9824931955211025	13604790.363560941
0.9825915590008614	13609485.374500249
0.9826899224806203	13609289.928331422
0.9827882859603789	13621779.432107387
0.9828866494401378	13639984.933198724
0.9829850129198967	13633634.533322284
0.9830833763996554	13627922.866703743
0.9831817398794143	13644675.088869404
0.9832801033591732	13635194.316099802
0.983378466838932	13643804.16678865
0.9834768303186907	13644597.997375356
0.9835751937984496	13659643.173447791
0.9836735572782085	13649523.905080719
0.9837719207579672	13661350.847380493
0.983870284237726	13660542.968020812
0.9839686477174849	13665761.376613775
0.9840670111972438	13672363.875853498
0.9841653746770025	13678149.458436294
0.9842637381567614	13680864.01693784
0.9843621016365203	13687465.895093596
0.984460465116279	13687822.228069758
0.9845588285960379	13695669.300049221
0.9846571920757968	13693499.993060846
0.9847555555555555	13693255.429381266
0.9848539190353144	13701783.585306792
0.9849522825150733	13715250.27768493
0.9850506459948322	13703974.251387876
0.9851490094745908	13707158.964623692
